Frequency [Hz], |S00| [-], |S10| [-], Arg(S00) [-], Arg(S10) [-], Delay 0>0 [s], Delay 0>1 [s], |Z0| [Ohm] , Arg(Z0) [-]
2.000000e+08, 4.044139e-02, 1.058040e+00, 6.562776e-01, -3.082713e-01, 1.845062e-10, 2.714912e-10, 5.330802e+01, 4.939304e-02
2.038000e+08, 4.038766e-02, 1.057833e+00, 6.518723e-01, -3.147534e-01, 1.755464e-10, 2.707652e-10, 5.331506e+01, 4.904514e-02
2.076000e+08, 4.034509e-02, 1.057624e+00, 6.476809e-01, -3.212182e-01, 1.670453e-10, 2.700683e-10, 5.332239e+01, 4.872427e-02
2.114000e+08, 4.031318e-02, 1.057415e+00, 6.436925e-01, -3.276664e-01, 1.589872e-10, 2.693984e-10, 5.333002e+01, 4.842904e-02
2.152000e+08, 4.029151e-02, 1.057205e+00, 6.398965e-01, -3.340986e-01, 1.513572e-10, 2.687538e-10, 5.333796e+01, 4.815810e-02
2.190000e+08, 4.027966e-02, 1.056994e+00, 6.362827e-01, -3.405154e-01, 1.441407e-10, 2.681328e-10, 5.334622e+01, 4.791023e-02
2.228000e+08, 4.027725e-02, 1.056782e+00, 6.328412e-01, -3.469173e-01, 1.373240e-10, 2.675341e-10, 5.335481e+01, 4.768425e-02
2.266000e+08, 4.028395e-02, 1.056570e+00, 6.295624e-01, -3.533050e-01, 1.308935e-10, 2.669561e-10, 5.336372e+01, 4.747906e-02
2.304000e+08, 4.029941e-02, 1.056357e+00, 6.264372e-01, -3.596789e-01, 1.248363e-10, 2.663979e-10, 5.337298e+01, 4.729362e-02
2.342000e+08, 4.032336e-02, 1.056144e+00, 6.234566e-01, -3.660394e-01, 1.191399e-10, 2.658581e-10, 5.338257e+01, 4.712694e-02
2.380000e+08, 4.035550e-02, 1.055931e+00, 6.206120e-01, -3.723871e-01, 1.137922e-10, 2.653357e-10, 5.339252e+01, 4.697810e-02
2.418000e+08, 4.039558e-02, 1.055717e+00, 6.178951e-01, -3.787223e-01, 1.087816e-10, 2.648300e-10, 5.340282e+01, 4.684620e-02
2.456000e+08, 4.044336e-02, 1.055503e+00, 6.152978e-01, -3.850454e-01, 1.040966e-10, 2.643398e-10, 5.341348e+01, 4.673041e-02
2.494000e+08, 4.049862e-02, 1.055289e+00, 6.128124e-01, -3.913568e-01, 9.972623e-11, 2.638646e-10, 5.342451e+01, 4.662991e-02
2.532000e+08, 4.056112e-02, 1.055075e+00, 6.104313e-01, -3.976568e-01, 9.565988e-11, 2.634034e-10, 5.343592e+01, 4.654396e-02
2.570000e+08, 4.063069e-02, 1.054861e+00, 6.081473e-01, -4.039459e-01, 9.188711e-11, 2.629558e-10, 5.344770e+01, 4.647181e-02
2.608000e+08, 4.070712e-02, 1.054647e+00, 6.059534e-01, -4.102243e-01, 8.839782e-11, 2.625209e-10, 5.345986e+01, 4.641277e-02
2.646000e+08, 4.079024e-02, 1.054434e+00, 6.038428e-01, -4.164922e-01, 8.518217e-11, 2.620983e-10, 5.347242e+01, 4.636616e-02
2.684000e+08, 4.087988e-02, 1.054221e+00, 6.018090e-01, -4.227501e-01, 8.223057e-11, 2.616875e-10, 5.348536e+01, 4.633134e-02
2.722000e+08, 4.097588e-02, 1.054008e+00, 5.998457e-01, -4.289982e-01, 7.953366e-11, 2.612878e-10, 5.349870e+01, 4.630768e-02
2.760000e+08, 4.107808e-02, 1.053795e+00, 5.979467e-01, -4.352367e-01, 7.708230e-11, 2.608990e-10, 5.351245e+01, 4.629461e-02
2.798000e+08, 4.118634e-02, 1.053584e+00, 5.961063e-01, -4.414660e-01, 7.486760e-11, 2.605205e-10, 5.352659e+01, 4.629153e-02
2.836000e+08, 4.130051e-02, 1.053373e+00, 5.943187e-01, -4.476862e-01, 7.288083e-11, 2.601520e-10, 5.354115e+01, 4.629790e-02
2.874000e+08, 4.142045e-02, 1.053162e+00, 5.925786e-01, -4.538976e-01, 7.111349e-11, 2.597931e-10, 5.355612e+01, 4.631317e-02
2.912000e+08, 4.154605e-02, 1.052953e+00, 5.908807e-01, -4.601005e-01, 6.955726e-11, 2.594434e-10, 5.357150e+01, 4.633684e-02
2.950000e+08, 4.167716e-02, 1.052744e+00, 5.892199e-01, -4.662950e-01, 6.820400e-11, 2.591026e-10, 5.358730e+01, 4.636839e-02
2.988000e+08, 4.181367e-02, 1.052536e+00, 5.875915e-01, -4.724813e-01, 6.704576e-11, 2.587706e-10, 5.360353e+01, 4.640735e-02
3.026000e+08, 4.195547e-02, 1.052329e+00, 5.859907e-01, -4.786597e-01, 6.607477e-11, 2.584469e-10, 5.362018e+01, 4.645323e-02
3.064000e+08, 4.210242e-02, 1.052123e+00, 5.844131e-01, -4.848305e-01, 6.528342e-11, 2.581312e-10, 5.363725e+01, 4.650559e-02
3.102000e+08, 4.225443e-02, 1.051919e+00, 5.828544e-01, -4.909936e-01, 6.466427e-11, 2.578235e-10, 5.365475e+01, 4.656397e-02
3.140000e+08, 4.241137e-02, 1.051715e+00, 5.813105e-01, -4.971494e-01, 6.421006e-11, 2.575234e-10, 5.367269e+01, 4.662794e-02
3.178000e+08, 4.257315e-02, 1.051513e+00, 5.797774e-01, -5.032981e-01, 6.391369e-11, 2.572308e-10, 5.369106e+01, 4.669708e-02
3.216000e+08, 4.273966e-02, 1.051312e+00, 5.782514e-01, -5.094398e-01, 6.376822e-11, 2.569453e-10, 5.370986e+01, 4.677098e-02
3.254000e+08, 4.291080e-02, 1.051113e+00, 5.767288e-01, -5.155746e-01, 6.376688e-11, 2.566669e-10, 5.372909e+01, 4.684923e-02
3.292000e+08, 4.308645e-02, 1.050915e+00, 5.752063e-01, -5.217028e-01, 6.390306e-11, 2.563954e-10, 5.374877e+01, 4.693144e-02
3.330000e+08, 4.326653e-02, 1.050718e+00, 5.736806e-01, -5.278245e-01, 6.417031e-11, 2.561306e-10, 5.376888e+01, 4.701724e-02
3.368000e+08, 4.345093e-02, 1.050523e+00, 5.721484e-01, -5.339399e-01, 6.456235e-11, 2.558722e-10, 5.378942e+01, 4.710624e-02
3.406000e+08, 4.363956e-02, 1.050330e+00, 5.706069e-01, -5.400492e-01, 6.507304e-11, 2.556203e-10, 5.381041e+01, 4.719807e-02
3.444000e+08, 4.383232e-02, 1.050138e+00, 5.690532e-01, -5.461524e-01, 6.569643e-11, 2.553746e-10, 5.383183e+01, 4.729239e-02
3.482000e+08, 4.402912e-02, 1.049948e+00, 5.674847e-01, -5.522498e-01, 6.642670e-11, 2.551350e-10, 5.385370e+01, 4.738885e-02
3.520000e+08, 4.422985e-02, 1.049759e+00, 5.658987e-01, -5.583414e-01, 6.725822e-11, 2.549014e-10, 5.387600e+01, 4.748709e-02
3.558000e+08, 4.443444e-02, 1.049573e+00, 5.642928e-01, -5.644274e-01, 6.818550e-11, 2.546736e-10, 5.389874e+01, 4.758679e-02
3.596000e+08, 4.464279e-02, 1.049388e+00, 5.626648e-01, -5.705080e-01, 6.920321e-11, 2.544515e-10, 5.392192e+01, 4.768761e-02
3.634000e+08, 4.485480e-02, 1.049205e+00, 5.610125e-01, -5.765834e-01, 7.030618e-11, 2.542351e-10, 5.394553e+01, 4.778924e-02
3.672000e+08, 4.507038e-02, 1.049024e+00, 5.593338e-01, -5.826535e-01, 7.148941e-11, 2.540241e-10, 5.396958e+01, 4.789135e-02
3.710000e+08, 4.528945e-02, 1.048845e+00, 5.576270e-01, -5.887186e-01, 7.274804e-11, 2.538186e-10, 5.399406e+01, 4.799365e-02
3.748000e+08, 4.551192e-02, 1.048667e+00, 5.558900e-01, -5.947788e-01, 7.407737e-11, 2.536183e-10, 5.401897e+01, 4.809582e-02
3.786000e+08, 4.573770e-02, 1.048492e+00, 5.541213e-01, -6.008342e-01, 7.547286e-11, 2.534232e-10, 5.404432e+01, 4.819756e-02
3.824000e+08, 4.596670e-02, 1.048319e+00, 5.523193e-01, -6.068850e-01, 7.693012e-11, 2.532332e-10, 5.407009e+01, 4.829860e-02
3.862000e+08, 4.619883e-02, 1.048148e+00, 5.504825e-01, -6.129312e-01, 7.844491e-11, 2.530482e-10, 5.409629e+01, 4.839864e-02
3.900000e+08, 4.643401e-02, 1.047979e+00, 5.486096e-01, -6.189730e-01, 8.001316e-11, 2.528681e-10, 5.412291e+01, 4.849739e-02
3.938000e+08, 4.667216e-02, 1.047812e+00, 5.466992e-01, -6.250105e-01, 8.163090e-11, 2.526928e-10, 5.414996e+01, 4.859459e-02
3.976000e+08, 4.691318e-02, 1.047648e+00, 5.447502e-01, -6.310438e-01, 8.329437e-11, 2.525223e-10, 5.417742e+01, 4.868997e-02
4.014000e+08, 4.715700e-02, 1.047485e+00, 5.427614e-01, -6.370731e-01, 8.499990e-11, 2.523564e-10, 5.420530e+01, 4.878325e-02
4.052000e+08, 4.740352e-02, 1.047325e+00, 5.407319e-01, -6.430984e-01, 8.674399e-11, 2.521952e-10, 5.423359e+01, 4.887418e-02
4.090000e+08, 4.765268e-02, 1.047167e+00, 5.386608e-01, -6.491198e-01, 8.852328e-11, 2.520384e-10, 5.426229e+01, 4.896251e-02
4.128000e+08, 4.790438e-02, 1.047011e+00, 5.365472e-01, -6.551375e-01, 9.033454e-11, 2.518860e-10, 5.429139e+01, 4.904798e-02
4.166000e+08, 4.815854e-02, 1.046857e+00, 5.343904e-01, -6.611516e-01, 9.217467e-11, 2.517379e-10, 5.432090e+01, 4.913035e-02
4.204000e+08, 4.841509e-02, 1.046706e+00, 5.321896e-01, -6.671621e-01, 9.404072e-11, 2.515942e-10, 5.435080e+01, 4.920938e-02
4.242000e+08, 4.867393e-02, 1.046556e+00, 5.299443e-01, -6.731692e-01, 9.592984e-11, 2.514546e-10, 5.438110e+01, 4.928483e-02
4.280000e+08, 4.893500e-02, 1.046410e+00, 5.276539e-01, -6.791729e-01, 9.783934e-11, 2.513191e-10, 5.441178e+01, 4.935647e-02
4.318000e+08, 4.919821e-02, 1.046265e+00, 5.253179e-01, -6.851734e-01, 9.976663e-11, 2.511877e-10, 5.444285e+01, 4.942407e-02
4.356000e+08, 4.946349e-02, 1.046123e+00, 5.229358e-01, -6.911708e-01, 1.017092e-10, 2.510603e-10, 5.447430e+01, 4.948742e-02
4.394000e+08, 4.973075e-02, 1.045983e+00, 5.205074e-01, -6.971652e-01, 1.036648e-10, 2.509368e-10, 5.450613e+01, 4.954629e-02
4.432000e+08, 4.999992e-02, 1.045845e+00, 5.180323e-01, -7.031566e-01, 1.056312e-10, 2.508171e-10, 5.453833e+01, 4.960047e-02
4.470000e+08, 5.027093e-02, 1.045710e+00, 5.155102e-01, -7.091451e-01, 1.076062e-10, 2.507013e-10, 5.457089e+01, 4.964975e-02
4.508000e+08, 5.054370e-02, 1.045577e+00, 5.129410e-01, -7.151309e-01, 1.095878e-10, 2.505891e-10, 5.460381e+01, 4.969393e-02
4.546000e+08, 5.081814e-02, 1.045447e+00, 5.103245e-01, -7.211140e-01, 1.115740e-10, 2.504806e-10, 5.463708e+01, 4.973280e-02
4.584000e+08, 5.109420e-02, 1.045318e+00, 5.076605e-01, -7.270945e-01, 1.135632e-10, 2.503756e-10, 5.467070e+01, 4.976617e-02
4.622000e+08, 5.137179e-02, 1.045192e+00, 5.049491e-01, -7.330725e-01, 1.155536e-10, 2.502742e-10, 5.470467e+01, 4.979386e-02
4.660000e+08, 5.165085e-02, 1.045069e+00, 5.021901e-01, -7.390480e-01, 1.175435e-10, 2.501762e-10, 5.473897e+01, 4.981566e-02
4.698000e+08, 5.193129e-02, 1.044947e+00, 4.993836e-01, -7.450213e-01, 1.195315e-10, 2.500816e-10, 5.477360e+01, 4.983140e-02
4.736000e+08, 5.221306e-02, 1.044829e+00, 4.965297e-01, -7.509922e-01, 1.215161e-10, 2.499904e-10, 5.480856e+01, 4.984090e-02
4.774000e+08, 5.249608e-02, 1.044712e+00, 4.936284e-01, -7.569610e-01, 1.234959e-10, 2.499024e-10, 5.484383e+01, 4.984398e-02
4.812000e+08, 5.278027e-02, 1.044598e+00, 4.906797e-01, -7.629277e-01, 1.254698e-10, 2.498176e-10, 5.487941e+01, 4.984047e-02
4.850000e+08, 5.306558e-02, 1.044486e+00, 4.876840e-01, -7.688924e-01, 1.274364e-10, 2.497360e-10, 5.491530e+01, 4.983021e-02
4.888000e+08, 5.335193e-02, 1.044376e+00, 4.846413e-01, -7.748551e-01, 1.293947e-10, 2.496575e-10, 5.495149e+01, 4.981304e-02
4.926000e+08, 5.363926e-02, 1.044269e+00, 4.815519e-01, -7.808160e-01, 1.313436e-10, 2.495819e-10, 5.498796e+01, 4.978879e-02
4.964000e+08, 5.392750e-02, 1.044164e+00, 4.784159e-01, -7.867750e-01, 1.332822e-10, 2.495094e-10, 5.502472e+01, 4.975730e-02
5.002000e+08, 5.421658e-02, 1.044061e+00, 4.752337e-01, -7.927323e-01, 1.352095e-10, 2.494398e-10, 5.506176e+01, 4.971844e-02
5.040000e+08, 5.450644e-02, 1.043960e+00, 4.720054e-01, -7.986880e-01, 1.371248e-10, 2.493730e-10, 5.509906e+01, 4.967205e-02
5.078000e+08, 5.479702e-02, 1.043862e+00, 4.687314e-01, -8.046420e-01, 1.390272e-10, 2.493090e-10, 5.513663e+01, 4.961799e-02
5.116000e+08, 5.508824e-02, 1.043766e+00, 4.654120e-01, -8.105946e-01, 1.409159e-10, 2.492478e-10, 5.517445e+01, 4.955612e-02
5.154000e+08, 5.538006e-02, 1.043672e+00, 4.620474e-01, -8.165456e-01, 1.427905e-10, 2.491892e-10, 5.521252e+01, 4.948631e-02
5.192000e+08, 5.567241e-02, 1.043580e+00, 4.586381e-01, -8.224953e-01, 1.446501e-10, 2.491333e-10, 5.525082e+01, 4.940842e-02
5.230000e+08, 5.596522e-02, 1.043491e+00, 4.551845e-01, -8.284436e-01, 1.464944e-10, 2.490799e-10, 5.528935e+01, 4.932233e-02
5.268000e+08, 5.625844e-02, 1.043404e+00, 4.516868e-01, -8.343907e-01, 1.483227e-10, 2.490291e-10, 5.532811e+01, 4.922792e-02
5.306000e+08, 5.655202e-02, 1.043319e+00, 4.481454e-01, -8.403365e-01, 1.501345e-10, 2.489807e-10, 5.536708e+01, 4.912507e-02
5.344000e+08, 5.684588e-02, 1.043236e+00, 4.445608e-01, -8.462812e-01, 1.519296e-10, 2.489348e-10, 5.540626e+01, 4.901366e-02
5.382000e+08, 5.713997e-02, 1.043155e+00, 4.409333e-01, -8.522248e-01, 1.537074e-10, 2.488912e-10, 5.544563e+01, 4.889357e-02
5.420000e+08, 5.743424e-02, 1.043076e+00, 4.372633e-01, -8.581674e-01, 1.554677e-10, 2.488499e-10, 5.548519e+01, 4.876472e-02
5.458000e+08, 5.772863e-02, 1.043000e+00, 4.335514e-01, -8.641089e-01, 1.572102e-10, 2.488108e-10, 5.552493e+01, 4.862698e-02
5.496000e+08, 5.802308e-02, 1.042925e+00, 4.297978e-01, -8.700496e-01, 1.589345e-10, 2.487740e-10, 5.556485e+01, 4.848025e-02
5.534000e+08, 5.831754e-02, 1.042853e+00, 4.260031e-01, -8.759893e-01, 1.606405e-10, 2.487393e-10, 5.560493e+01, 4.832446e-02
5.572000e+08, 5.861196e-02, 1.042783e+00, 4.221676e-01, -8.819282e-01, 1.623279e-10, 2.487067e-10, 5.564516e+01, 4.815949e-02
5.610000e+08, 5.890629e-02, 1.042714e+00, 4.182918e-01, -8.878664e-01, 1.639966e-10, 2.486762e-10, 5.568554e+01, 4.798526e-02
5.648000e+08, 5.920047e-02, 1.042648e+00, 4.143762e-01, -8.938038e-01, 1.656464e-10, 2.486477e-10, 5.572605e+01, 4.780169e-02
5.686000e+08, 5.949445e-02, 1.042583e+00, 4.104213e-01, -8.997405e-01, 1.672773e-10, 2.486211e-10, 5.576669e+01, 4.760869e-02
5.724000e+08, 5.978818e-02, 1.042521e+00, 4.064273e-01, -9.056767e-01, 1.688891e-10, 2.485965e-10, 5.580746e+01, 4.740619e-02
5.762000e+08, 6.008161e-02, 1.042460e+00, 4.023949e-01, -9.116122e-01, 1.704818e-10, 2.485737e-10, 5.584833e+01, 4.719411e-02
5.800000e+08, 6.037469e-02, 1.042402e+00, 3.983245e-01, -9.175471e-01, 1.720553e-10, 2.485527e-10, 5.588930e+01, 4.697238e-02
5.838000e+08, 6.066738e-02, 1.042345e+00, 3.942165e-01, -9.234816e-01, 1.736096e-10, 2.485334e-10, 5.593036e+01, 4.674093e-02
5.876000e+08, 6.095962e-02, 1.042290e+00, 3.900713e-01, -9.294156e-01, 1.751448e-10, 2.485159e-10, 5.597150e+01, 4.649971e-02
5.914000e+08, 6.125138e-02, 1.042237e+00, 3.858896e-01, -9.353492e-01, 1.766608e-10, 2.485001e-10, 5.601272e+01, 4.624864e-02
5.952000e+08, 6.154260e-02, 1.042186e+00, 3.816716e-01, -9.412824e-01, 1.781577e-10, 2.484859e-10, 5.605400e+01, 4.598768e-02
5.990000e+08, 6.183324e-02, 1.042136e+00, 3.774179e-01, -9.472153e-01, 1.796355e-10, 2.484733e-10, 5.609533e+01, 4.571677e-02
6.028000e+08, 6.212325e-02, 1.042088e+00, 3.731289e-01, -9.531479e-01, 1.810943e-10, 2.484622e-10, 5.613671e+01, 4.543586e-02
6.066000e+08, 6.241260e-02, 1.042042e+00, 3.688051e-01, -9.590802e-01, 1.825341e-10, 2.484526e-10, 5.617812e+01, 4.514490e-02
6.104000e+08, 6.270123e-02, 1.041998e+00, 3.644469e-01, -9.650123e-01, 1.839552e-10, 2.484445e-10, 5.621955e+01, 4.484385e-02
6.142000e+08, 6.298911e-02, 1.041956e+00, 3.600547e-01, -9.709441e-01, 1.853575e-10, 2.484378e-10, 5.626100e+01, 4.453268e-02
6.180000e+08, 6.327620e-02, 1.041915e+00, 3.556291e-01, -9.768759e-01, 1.867413e-10, 2.484325e-10, 5.630246e+01, 4.421134e-02
6.218000e+08, 6.356244e-02, 1.041875e+00, 3.511704e-01, -9.828075e-01, 1.881066e-10, 2.484285e-10, 5.634391e+01, 4.387980e-02
6.256000e+08, 6.384782e-02, 1.041838e+00, 3.466792e-01, -9.887390e-01, 1.894536e-10, 2.484258e-10, 5.638535e+01, 4.353804e-02
6.294000e+08, 6.413227e-02, 1.041802e+00, 3.421558e-01, -9.946704e-01, 1.907824e-10, 2.484244e-10, 5.642676e+01, 4.318602e-02
6.332000e+08, 6.441578e-02, 1.041767e+00, 3.376006e-01, -1.000602e+00, 1.920932e-10, 2.484241e-10, 5.646814e+01, 4.282372e-02
6.370000e+08, 6.469829e-02, 1.041734e+00, 3.330142e-01, -1.006533e+00, 1.933862e-10, 2.484251e-10, 5.650948e+01, 4.245113e-02
6.408000e+08, 6.497977e-02, 1.041703e+00, 3.283969e-01, -1.012465e+00, 1.946615e-10, 2.484272e-10, 5.655076e+01, 4.206823e-02
6.446000e+08, 6.526018e-02, 1.041673e+00, 3.237491e-01, -1.018396e+00, 1.959194e-10, 2.484304e-10, 5.659198e+01, 4.167500e-02
6.484000e+08, 6.553949e-02, 1.041644e+00, 3.190713e-01, -1.024328e+00, 1.971599e-10, 2.484346e-10, 5.663313e+01, 4.127143e-02
6.522000e+08, 6.581766e-02, 1.041617e+00, 3.143639e-01, -1.030259e+00, 1.983834e-10, 2.484399e-10, 5.667419e+01, 4.085752e-02
6.560000e+08, 6.609466e-02, 1.041591e+00, 3.096273e-01, -1.036191e+00, 1.995899e-10, 2.484462e-10, 5.671516e+01, 4.043325e-02
6.598000e+08, 6.637045e-02, 1.041567e+00, 3.048619e-01, -1.042123e+00, 2.007798e-10, 2.484535e-10, 5.675603e+01, 3.999864e-02
6.636000e+08, 6.664500e-02, 1.041544e+00, 3.000680e-01, -1.048055e+00, 2.019531e-10, 2.484617e-10, 5.679679e+01, 3.955368e-02
6.674000e+08, 6.691828e-02, 1.041522e+00, 2.952462e-01, -1.053987e+00, 2.031102e-10, 2.484708e-10, 5.683742e+01, 3.909838e-02
6.712000e+08, 6.719025e-02, 1.041502e+00, 2.903967e-01, -1.059920e+00, 2.042512e-10, 2.484807e-10, 5.687793e+01, 3.863275e-02
6.750000e+08, 6.746088e-02, 1.041483e+00, 2.855200e-01, -1.065853e+00, 2.053763e-10, 2.484915e-10, 5.691829e+01, 3.815678e-02
6.788000e+08, 6.773014e-02, 1.041465e+00, 2.806164e-01, -1.071786e+00, 2.064858e-10, 2.485031e-10, 5.695849e+01, 3.767051e-02
6.826000e+08, 6.799800e-02, 1.041448e+00, 2.756863e-01, -1.077719e+00, 2.075798e-10, 2.485154e-10, 5.699854e+01, 3.717395e-02
6.864000e+08, 6.826443e-02, 1.041433e+00, 2.707301e-01, -1.083653e+00, 2.086587e-10, 2.485285e-10, 5.703841e+01, 3.666711e-02
6.902000e+08, 6.852940e-02, 1.041419e+00, 2.657482e-01, -1.089586e+00, 2.097226e-10, 2.485423e-10, 5.707810e+01, 3.615001e-02
6.940000e+08, 6.879288e-02, 1.041406e+00, 2.607408e-01, -1.095521e+00, 2.107717e-10, 2.485568e-10, 5.711760e+01, 3.562269e-02
6.978000e+08, 6.905485e-02, 1.041394e+00, 2.557084e-01, -1.101455e+00, 2.118063e-10, 2.485719e-10, 5.715690e+01, 3.508517e-02
7.016000e+08, 6.931527e-02, 1.041383e+00, 2.506513e-01, -1.107390e+00, 2.128266e-10, 2.485876e-10, 5.719599e+01, 3.453748e-02
7.054000e+08, 6.957411e-02, 1.041373e+00, 2.455698e-01, -1.113325e+00, 2.138328e-10, 2.486040e-10, 5.723486e+01, 3.397966e-02
7.092000e+08, 6.983136e-02, 1.041365e+00, 2.404643e-01, -1.119261e+00, 2.148252e-10, 2.486209e-10, 5.727350e+01, 3.341173e-02
7.130000e+08, 7.008698e-02, 1.041357e+00, 2.353351e-01, -1.125197e+00, 2.158039e-10, 2.486383e-10, 5.731189e+01, 3.283375e-02
7.168000e+08, 7.034095e-02, 1.041350e+00, 2.301826e-01, -1.131134e+00, 2.167692e-10, 2.486563e-10, 5.735004e+01, 3.224574e-02
7.206000e+08, 7.059325e-02, 1.041345e+00, 2.250070e-01, -1.137071e+00, 2.177214e-10, 2.486748e-10, 5.738793e+01, 3.164776e-02
7.244000e+08, 7.084384e-02, 1.041340e+00, 2.198086e-01, -1.143008e+00, 2.186605e-10, 2.486937e-10, 5.742554e+01, 3.103985e-02
7.282000e+08, 7.109271e-02, 1.041336e+00, 2.145879e-01, -1.148946e+00, 2.195870e-10, 2.487131e-10, 5.746288e+01, 3.042206e-02
7.320000e+08, 7.133982e-02, 1.041333e+00, 2.093450e-01, -1.154884e+00, 2.205009e-10, 2.487329e-10, 5.749993e+01, 2.979444e-02
7.358000e+08, 7.158517e-02, 1.041331e+00, 2.040803e-01, -1.160823e+00, 2.214025e-10, 2.487531e-10, 5.753669e+01, 2.915704e-02
7.396000e+08, 7.182872e-02, 1.041330e+00, 1.987941e-01, -1.166762e+00, 2.222920e-10, 2.487737e-10, 5.757313e+01, 2.850993e-02
7.434000e+08, 7.207045e-02, 1.041330e+00, 1.934866e-01, -1.172702e+00, 2.231697e-10, 2.487946e-10, 5.760926e+01, 2.785315e-02
7.472000e+08, 7.231034e-02, 1.041331e+00, 1.881582e-01, -1.178642e+00, 2.240358e-10, 2.488158e-10, 5.764506e+01, 2.718677e-02
7.510000e+08, 7.254837e-02, 1.041332e+00, 1.828091e-01, -1.184583e+00, 2.248904e-10, 2.488374e-10, 5.768053e+01, 2.651086e-02
7.548000e+08, 7.278452e-02, 1.041334e+00, 1.774396e-01, -1.190524e+00, 2.257338e-10, 2.488593e-10, 5.771566e+01, 2.582548e-02
7.586000e+08, 7.301877e-02, 1.041337e+00, 1.720499e-01, -1.196466e+00, 2.265662e-10, 2.488814e-10, 5.775042e+01, 2.513070e-02
7.624000e+08, 7.325109e-02, 1.041341e+00, 1.666404e-01, -1.202408e+00, 2.273878e-10, 2.489038e-10, 5.778483e+01, 2.442659e-02
7.662000e+08, 7.348147e-02, 1.041345e+00, 1.612113e-01, -1.208351e+00, 2.281989e-10, 2.489264e-10, 5.781887e+01, 2.371321e-02
7.700000e+08, 7.370989e-02, 1.041350e+00, 1.557628e-01, -1.214295e+00, 2.289996e-10, 2.489492e-10, 5.785252e+01, 2.299066e-02
7.738000e+08, 7.393633e-02, 1.041356e+00, 1.502952e-01, -1.220239e+00, 2.297901e-10, 2.489722e-10, 5.788579e+01, 2.225899e-02
7.776000e+08, 7.416077e-02, 1.041362e+00, 1.448087e-01, -1.226183e+00, 2.305706e-10, 2.489954e-10, 5.791865e+01, 2.151830e-02
7.814000e+08, 7.438319e-02, 1.041369e+00, 1.393035e-01, -1.232128e+00, 2.313414e-10, 2.490187e-10, 5.795111e+01, 2.076866e-02
7.852000e+08, 7.460358e-02, 1.041377e+00, 1.337800e-01, -1.238074e+00, 2.321026e-10, 2.490422e-10, 5.798315e+01, 2.001016e-02
7.890000e+08, 7.482192e-02, 1.041385e+00, 1.282383e-01, -1.244020e+00, 2.328544e-10, 2.490659e-10, 5.801477e+01, 1.924288e-02
7.928000e+08, 7.503819e-02, 1.041394e+00, 1.226786e-01, -1.249967e+00, 2.335971e-10, 2.490896e-10, 5.804596e+01, 1.846691e-02
