Frequency [Hz], |S00| [-], |S10| [-], |S20| [-], |S30| [-], Arg(S00) [-], Arg(S10) [-], Arg(S20) [-], Arg(S30) [-], Delay 0>0 [s], Delay 0>1 [s], Delay 0>2 [s], Delay 0>3 [s], |Z0| [Ohm] , Arg(Z0) [-]
2.000000e+08, 9.016521e-02, 9.709181e-01, 8.565226e-04, 4.669635e-04, 3.141196e+00, -3.602114e-02, 1.235519e+00, -1.828898e+00, 2.719269e-11, 3.003634e-11, -3.776726e-11, -7.288685e-11, 4.172922e+01, 7.218333e-05
2.038000e+08, 9.017850e-02, 9.708986e-01, 8.730098e-04, 4.776077e-04, 3.140546e+00, -3.673829e-02, 1.236420e+00, -1.827158e+00, 2.654532e-11, 3.000060e-11, -3.815630e-11, -7.275721e-11, 4.172810e+01, 1.902519e-04
2.076000e+08, 9.019201e-02, 9.708791e-01, 8.896136e-04, 4.882662e-04, 3.139913e+00, -3.745459e-02, 1.237331e+00, -1.825420e+00, 2.592602e-11, 2.996632e-11, -3.852281e-11, -7.254101e-11, 4.172697e+01, 3.055456e-04
2.114000e+08, 9.020574e-02, 9.708595e-01, 9.063357e-04, 4.989375e-04, 3.139294e+00, -3.817006e-02, 1.238251e+00, -1.823688e+00, 2.533284e-11, 2.993343e-11, -3.886773e-11, -7.224531e-11, 4.172583e+01, 4.181857e-04
2.152000e+08, 9.021966e-02, 9.708399e-01, 9.231777e-04, 5.096203e-04, 3.138689e+00, -3.888476e-02, 1.239179e+00, -1.821964e+00, 2.476403e-11, 2.990181e-11, -3.919203e-11, -7.187658e-11, 4.172467e+01, 5.282852e-04
2.190000e+08, 9.023377e-02, 9.708202e-01, 9.401409e-04, 5.203132e-04, 3.138097e+00, -3.959870e-02, 1.240115e+00, -1.820247e+00, 2.421797e-11, 2.987139e-11, -3.949667e-11, -7.144082e-11, 4.172349e+01, 6.359493e-04
2.228000e+08, 9.024805e-02, 9.708004e-01, 9.572267e-04, 5.310150e-04, 3.137519e+00, -4.031191e-02, 1.241058e+00, -1.818542e+00, 2.369318e-11, 2.984210e-11, -3.978261e-11, -7.094354e-11, 4.172231e+01, 7.412762e-04
2.266000e+08, 9.026250e-02, 9.707806e-01, 9.744363e-04, 5.417245e-04, 3.136954e+00, -4.102442e-02, 1.242008e+00, -1.816848e+00, 2.318833e-11, 2.981387e-11, -4.005087e-11, -7.038983e-11, 4.172111e+01, 8.443578e-04
2.304000e+08, 9.027709e-02, 9.707607e-01, 9.917709e-04, 5.524406e-04, 3.136400e+00, -4.173626e-02, 1.242964e+00, -1.815167e+00, 2.270217e-11, 2.978663e-11, -4.030244e-11, -6.978439e-11, 4.171991e+01, 9.452799e-04
2.342000e+08, 9.029183e-02, 9.707408e-01, 1.009232e-03, 5.631621e-04, 3.135858e+00, -4.244745e-02, 1.243926e+00, -1.813501e+00, 2.223357e-11, 2.976032e-11, -4.053834e-11, -6.913155e-11, 4.171869e+01, 1.044123e-03
2.380000e+08, 9.030669e-02, 9.707208e-01, 1.026819e-03, 5.738880e-04, 3.135327e+00, -4.315801e-02, 1.244894e+00, -1.811850e+00, 2.178149e-11, 2.973490e-11, -4.075960e-11, -6.843534e-11, 4.171746e+01, 1.140963e-03
2.418000e+08, 9.032167e-02, 9.707008e-01, 1.044535e-03, 5.846173e-04, 3.134807e+00, -4.386796e-02, 1.245867e+00, -1.810216e+00, 2.134497e-11, 2.971032e-11, -4.096727e-11, -6.769946e-11, 4.171623e+01, 1.235871e-03
2.456000e+08, 9.033676e-02, 9.706807e-01, 1.062379e-03, 5.953491e-04, 3.134297e+00, -4.457733e-02, 1.246846e+00, -1.808600e+00, 2.092313e-11, 2.968652e-11, -4.116238e-11, -6.692734e-11, 4.171499e+01, 1.328913e-03
2.494000e+08, 9.035195e-02, 9.706606e-01, 1.080352e-03, 6.060824e-04, 3.133798e+00, -4.528613e-02, 1.247828e+00, -1.807002e+00, 2.051516e-11, 2.966347e-11, -4.134598e-11, -6.612216e-11, 4.171374e+01, 1.420154e-03
2.532000e+08, 9.036723e-02, 9.706405e-01, 1.098455e-03, 6.168164e-04, 3.133308e+00, -4.599438e-02, 1.248816e+00, -1.805423e+00, 2.012030e-11, 2.964113e-11, -4.151911e-11, -6.528686e-11, 4.171249e+01, 1.509651e-03
2.570000e+08, 9.038259e-02, 9.706203e-01, 1.116689e-03, 6.275501e-04, 3.132827e+00, -4.670209e-02, 1.249807e+00, -1.803865e+00, 1.973786e-11, 2.961947e-11, -4.168279e-11, -6.442416e-11, 4.171123e+01, 1.597463e-03
2.608000e+08, 9.039802e-02, 9.706001e-01, 1.135053e-03, 6.382829e-04, 3.132356e+00, -4.740929e-02, 1.250802e+00, -1.802326e+00, 1.936721e-11, 2.959845e-11, -4.183806e-11, -6.353659e-11, 4.170996e+01, 1.683641e-03
2.646000e+08, 9.041352e-02, 9.705799e-01, 1.153549e-03, 6.490139e-04, 3.131894e+00, -4.811599e-02, 1.251801e+00, -1.800809e+00, 1.900773e-11, 2.957805e-11, -4.198590e-11, -6.262648e-11, 4.170869e+01, 1.768236e-03
2.684000e+08, 9.042907e-02, 9.705597e-01, 1.172175e-03, 6.597425e-04, 3.131440e+00, -4.882219e-02, 1.252804e+00, -1.799314e+00, 1.865889e-11, 2.955823e-11, -4.212731e-11, -6.169600e-11, 4.170742e+01, 1.851297e-03
2.722000e+08, 9.044466e-02, 9.705394e-01, 1.190933e-03, 6.704678e-04, 3.130994e+00, -4.952793e-02, 1.253809e+00, -1.797841e+00, 1.832017e-11, 2.953897e-11, -4.226322e-11, -6.074716e-11, 4.170614e+01, 1.932868e-03
2.760000e+08, 9.046030e-02, 9.705192e-01, 1.209823e-03, 6.811892e-04, 3.130557e+00, -5.023321e-02, 1.254818e+00, -1.796391e+00, 1.799110e-11, 2.952024e-11, -4.239457e-11, -5.978182e-11, 4.170486e+01, 2.012992e-03
2.798000e+08, 9.047597e-02, 9.704989e-01, 1.228844e-03, 6.919061e-04, 3.130128e+00, -5.093803e-02, 1.255831e+00, -1.794963e+00, 1.767123e-11, 2.950203e-11, -4.252224e-11, -5.880171e-11, 4.170358e+01, 2.091712e-03
2.836000e+08, 9.049166e-02, 9.704787e-01, 1.247996e-03, 7.026178e-04, 3.129706e+00, -5.164243e-02, 1.256846e+00, -1.793559e+00, 1.736015e-11, 2.948431e-11, -4.264708e-11, -5.780843e-11, 4.170230e+01, 2.169066e-03
2.874000e+08, 9.050737e-02, 9.704585e-01, 1.267279e-03, 7.133237e-04, 3.129291e+00, -5.234640e-02, 1.257864e+00, -1.792179e+00, 1.705749e-11, 2.946707e-11, -4.276990e-11, -5.680349e-11, 4.170102e+01, 2.245092e-03
2.912000e+08, 9.052309e-02, 9.704383e-01, 1.286693e-03, 7.240233e-04, 3.128884e+00, -5.304996e-02, 1.258885e+00, -1.790823e+00, 1.676287e-11, 2.945028e-11, -4.289146e-11, -5.578825e-11, 4.169974e+01, 2.319826e-03
2.950000e+08, 9.053881e-02, 9.704181e-01, 1.306237e-03, 7.347160e-04, 3.128484e+00, -5.375311e-02, 1.259909e+00, -1.789491e+00, 1.647597e-11, 2.943393e-11, -4.301248e-11, -5.476402e-11, 4.169846e+01, 2.393301e-03
2.988000e+08, 9.055453e-02, 9.703979e-01, 1.325911e-03, 7.454012e-04, 3.128090e+00, -5.445588e-02, 1.260936e+00, -1.788183e+00, 1.619648e-11, 2.941800e-11, -4.313362e-11, -5.373197e-11, 4.169718e+01, 2.465550e-03
3.026000e+08, 9.057023e-02, 9.703777e-01, 1.345714e-03, 7.560785e-04, 3.127704e+00, -5.515827e-02, 1.261966e+00, -1.786900e+00, 1.592410e-11, 2.940249e-11, -4.325550e-11, -5.269324e-11, 4.169590e+01, 2.536606e-03
3.064000e+08, 9.058592e-02, 9.703576e-01, 1.365646e-03, 7.667473e-04, 3.127323e+00, -5.586029e-02, 1.262999e+00, -1.785642e+00, 1.565855e-11, 2.938736e-11, -4.337867e-11, -5.164884e-11, 4.169462e+01, 2.606498e-03
3.102000e+08, 9.060159e-02, 9.703376e-01, 1.385705e-03, 7.774072e-04, 3.126949e+00, -5.656194e-02, 1.264035e+00, -1.784409e+00, 1.539959e-11, 2.937262e-11, -4.350363e-11, -5.059976e-11, 4.169334e+01, 2.675255e-03
3.140000e+08, 9.061723e-02, 9.703175e-01, 1.405891e-03, 7.880577e-04, 3.126582e+00, -5.726325e-02, 1.265073e+00, -1.783201e+00, 1.514698e-11, 2.935825e-11, -4.363084e-11, -4.954687e-11, 4.169207e+01, 2.742905e-03
3.178000e+08, 9.063283e-02, 9.702975e-01, 1.426203e-03, 7.986983e-04, 3.126220e+00, -5.796421e-02, 1.266115e+00, -1.782018e+00, 1.490047e-11, 2.934424e-11, -4.376068e-11, -4.849103e-11, 4.169080e+01, 2.809475e-03
3.216000e+08, 9.064840e-02, 9.702776e-01, 1.446640e-03, 8.093287e-04, 3.125864e+00, -5.866483e-02, 1.267160e+00, -1.780860e+00, 1.465988e-11, 2.933057e-11, -4.389348e-11, -4.743301e-11, 4.168954e+01, 2.874990e-03
3.254000e+08, 9.066392e-02, 9.702577e-01, 1.467201e-03, 8.199484e-04, 3.125514e+00, -5.936513e-02, 1.268208e+00, -1.779728e+00, 1.442498e-11, 2.931724e-11, -4.402951e-11, -4.637354e-11, 4.168827e+01, 2.939476e-03
3.292000e+08, 9.067938e-02, 9.702379e-01, 1.487884e-03, 8.305570e-04, 3.125170e+00, -6.006511e-02, 1.269259e+00, -1.778620e+00, 1.419560e-11, 2.930424e-11, -4.416899e-11, -4.531330e-11, 4.168702e+01, 3.002957e-03
3.330000e+08, 9.069479e-02, 9.702181e-01, 1.508689e-03, 8.411542e-04, 3.124831e+00, -6.076478e-02, 1.270314e+00, -1.777538e+00, 1.397155e-11, 2.929156e-11, -4.431208e-11, -4.425293e-11, 4.168577e+01, 3.065456e-03
3.368000e+08, 9.071014e-02, 9.701985e-01, 1.529613e-03, 8.517395e-04, 3.124497e+00, -6.146415e-02, 1.271372e+00, -1.776482e+00, 1.375267e-11, 2.927919e-11, -4.445887e-11, -4.319302e-11, 4.168452e+01, 3.126996e-03
3.406000e+08, 9.072542e-02, 9.701789e-01, 1.550657e-03, 8.623126e-04, 3.124169e+00, -6.216323e-02, 1.272433e+00, -1.775451e+00, 1.353880e-11, 2.926713e-11, -4.460940e-11, -4.213413e-11, 4.168328e+01, 3.187597e-03
3.444000e+08, 9.074063e-02, 9.701593e-01, 1.571817e-03, 8.728731e-04, 3.123846e+00, -6.286201e-02, 1.273498e+00, -1.774445e+00, 1.332979e-11, 2.925535e-11, -4.476366e-11, -4.107678e-11, 4.168205e+01, 3.247282e-03
3.482000e+08, 9.075576e-02, 9.701399e-01, 1.593094e-03, 8.834207e-04, 3.123528e+00, -6.356052e-02, 1.274567e+00, -1.773464e+00, 1.312549e-11, 2.924387e-11, -4.492159e-11, -4.002147e-11, 4.168082e+01, 3.306071e-03
3.520000e+08, 9.077081e-02, 9.701205e-01, 1.614484e-03, 8.939552e-04, 3.123214e+00, -6.425874e-02, 1.275640e+00, -1.772508e+00, 1.292578e-11, 2.923267e-11, -4.508307e-11, -3.896865e-11, 4.167960e+01, 3.363983e-03
3.558000e+08, 9.078577e-02, 9.701012e-01, 1.635986e-03, 9.044761e-04, 3.122906e+00, -6.495671e-02, 1.276716e+00, -1.771578e+00, 1.273052e-11, 2.922174e-11, -4.524793e-11, -3.791875e-11, 4.167838e+01, 3.421039e-03
3.596000e+08, 9.080065e-02, 9.700821e-01, 1.657599e-03, 9.149832e-04, 3.122602e+00, -6.565441e-02, 1.277797e+00, -1.770673e+00, 1.253958e-11, 2.921108e-11, -4.541595e-11, -3.687219e-11, 4.167718e+01, 3.477256e-03
3.634000e+08, 9.081543e-02, 9.700630e-01, 1.679320e-03, 9.254761e-04, 3.122302e+00, -6.635186e-02, 1.278881e+00, -1.769792e+00, 1.235287e-11, 2.920068e-11, -4.558687e-11, -3.582934e-11, 4.167598e+01, 3.532652e-03
3.672000e+08, 9.083011e-02, 9.700440e-01, 1.701149e-03, 9.359546e-04, 3.122007e+00, -6.704905e-02, 1.279969e+00, -1.768937e+00, 1.217025e-11, 2.919054e-11, -4.576038e-11, -3.479058e-11, 4.167479e+01, 3.587246e-03
3.710000e+08, 9.084469e-02, 9.700251e-01, 1.723082e-03, 9.464184e-04, 3.121717e+00, -6.774601e-02, 1.281062e+00, -1.768106e+00, 1.199164e-11, 2.918064e-11, -4.593613e-11, -3.375623e-11, 4.167361e+01, 3.641055e-03
3.748000e+08, 9.085917e-02, 9.700064e-01, 1.745117e-03, 9.568673e-04, 3.121430e+00, -6.844273e-02, 1.282159e+00, -1.767300e+00, 1.181692e-11, 2.917100e-11, -4.611373e-11, -3.272662e-11, 4.167244e+01, 3.694095e-03
3.786000e+08, 9.087353e-02, 9.699877e-01, 1.767254e-03, 9.673010e-04, 3.121148e+00, -6.913922e-02, 1.283260e+00, -1.766519e+00, 1.164601e-11, 2.916159e-11, -4.629275e-11, -3.170206e-11, 4.167128e+01, 3.746383e-03
3.824000e+08, 9.088778e-02, 9.699692e-01, 1.789488e-03, 9.777192e-04, 3.120870e+00, -6.983549e-02, 1.284365e+00, -1.765762e+00, 1.147880e-11, 2.915242e-11, -4.647273e-11, -3.068284e-11, 4.167012e+01, 3.797934e-03
3.862000e+08, 9.090191e-02, 9.699508e-01, 1.811819e-03, 9.881216e-04, 3.120596e+00, -7.053153e-02, 1.285475e+00, -1.765029e+00, 1.131522e-11, 2.914348e-11, -4.665317e-11, -2.966923e-11, 4.166898e+01, 3.848765e-03
3.900000e+08, 9.091593e-02, 9.699325e-01, 1.834244e-03, 9.985082e-04, 3.120326e+00, -7.122736e-02, 1.286588e+00, -1.764321e+00, 1.115517e-11, 2.913477e-11, -4.683356e-11, -2.866149e-11, 4.166785e+01, 3.898890e-03
3.938000e+08, 9.092982e-02, 9.699144e-01, 1.856760e-03, 1.008879e-03, 3.120060e+00, -7.192299e-02, 1.287707e+00, -1.763636e+00, 1.099858e-11, 2.912628e-11, -4.701334e-11, -2.765987e-11, 4.166673e+01, 3.948324e-03
3.976000e+08, 9.094358e-02, 9.698963e-01, 1.879366e-03, 1.019233e-03, 3.119797e+00, -7.261841e-02, 1.288829e+00, -1.762976e+00, 1.084537e-11, 2.911801e-11, -4.719194e-11, -2.666460e-11, 4.166561e+01, 3.997082e-03
4.014000e+08, 9.095722e-02, 9.698784e-01, 1.902059e-03, 1.029570e-03, 3.119538e+00, -7.331364e-02, 1.289956e+00, -1.762339e+00, 1.069546e-11, 2.910995e-11, -4.736877e-11, -2.567592e-11, 4.166451e+01, 4.045178e-03
4.052000e+08, 9.097072e-02, 9.698607e-01, 1.924835e-03, 1.039891e-03, 3.119283e+00, -7.400867e-02, 1.291087e+00, -1.761726e+00, 1.054878e-11, 2.910210e-11, -4.754320e-11, -2.469403e-11, 4.166342e+01, 4.092626e-03
4.090000e+08, 9.098408e-02, 9.698430e-01, 1.947694e-03, 1.050194e-03, 3.119031e+00, -7.470351e-02, 1.292222e+00, -1.761137e+00, 1.040527e-11, 2.909445e-11, -4.771463e-11, -2.371914e-11, 4.166234e+01, 4.139439e-03
4.128000e+08, 9.099731e-02, 9.698256e-01, 1.970632e-03, 1.060481e-03, 3.118782e+00, -7.539817e-02, 1.293361e+00, -1.760570e+00, 1.026485e-11, 2.908701e-11, -4.788240e-11, -2.275144e-11, 4.166128e+01, 4.185630e-03
4.166000e+08, 9.101040e-02, 9.698082e-01, 1.993647e-03, 1.070750e-03, 3.118537e+00, -7.609266e-02, 1.294505e+00, -1.760027e+00, 1.012746e-11, 2.907977e-11, -4.804586e-11, -2.179111e-11, 4.166022e+01, 4.231212e-03
4.204000e+08, 9.102334e-02, 9.697910e-01, 2.016735e-03, 1.081002e-03, 3.118295e+00, -7.678697e-02, 1.295652e+00, -1.759507e+00, 9.993032e-12, 2.907272e-11, -4.820436e-11, -2.083834e-11, 4.165918e+01, 4.276199e-03
4.242000e+08, 9.103614e-02, 9.697740e-01, 2.039895e-03, 1.091236e-03, 3.118057e+00, -7.748111e-02, 1.296803e+00, -1.759009e+00, 9.861515e-12, 2.906587e-11, -4.835724e-11, -1.989330e-11, 4.165815e+01, 4.320602e-03
4.280000e+08, 9.104879e-02, 9.697571e-01, 2.063124e-03, 1.101452e-03, 3.117821e+00, -7.817509e-02, 1.297957e+00, -1.758534e+00, 9.732846e-12, 2.905920e-11, -4.850383e-11, -1.895614e-11, 4.165713e+01, 4.364433e-03
4.318000e+08, 9.106129e-02, 9.697403e-01, 2.086418e-03, 1.111650e-03, 3.117589e+00, -7.886891e-02, 1.299115e+00, -1.758082e+00, 9.606968e-12, 2.905272e-11, -4.864348e-11, -1.802703e-11, 4.165612e+01, 4.407705e-03
4.356000e+08, 9.107364e-02, 9.697238e-01, 2.109776e-03, 1.121830e-03, 3.117360e+00, -7.956258e-02, 1.300277e+00, -1.757651e+00, 9.483827e-12, 2.904642e-11, -4.877552e-11, -1.710610e-11, 4.165513e+01, 4.450430e-03
4.394000e+08, 9.108584e-02, 9.697073e-01, 2.133194e-03, 1.131992e-03, 3.117133e+00, -8.025610e-02, 1.301441e+00, -1.757243e+00, 9.363368e-12, 2.904029e-11, -4.889931e-11, -1.619351e-11, 4.165414e+01, 4.492618e-03
4.432000e+08, 9.109787e-02, 9.696911e-01, 2.156669e-03, 1.142136e-03, 3.116910e+00, -8.094946e-02, 1.302609e+00, -1.756856e+00, 9.245540e-12, 2.903435e-11, -4.901419e-11, -1.528939e-11, 4.165318e+01, 4.534281e-03
4.470000e+08, 9.110976e-02, 9.696749e-01, 2.180200e-03, 1.152261e-03, 3.116689e+00, -8.164269e-02, 1.303779e+00, -1.756491e+00, 9.130291e-12, 2.902857e-11, -4.911954e-11, -1.439386e-11, 4.165222e+01, 4.575430e-03
4.508000e+08, 9.112148e-02, 9.696590e-01, 2.203782e-03, 1.162367e-03, 3.116471e+00, -8.233578e-02, 1.304952e+00, -1.756148e+00, 9.017574e-12, 2.902297e-11, -4.921474e-11, -1.350705e-11, 4.165128e+01, 4.616076e-03
4.546000e+08, 9.113304e-02, 9.696432e-01, 2.227414e-03, 1.172455e-03, 3.116256e+00, -8.302874e-02, 1.306127e+00, -1.755825e+00, 8.907340e-12, 2.901753e-11, -4.929919e-11, -1.262907e-11, 4.165035e+01, 4.656230e-03
4.584000e+08, 9.114443e-02, 9.696276e-01, 2.251092e-03, 1.182524e-03, 3.116043e+00, -8.372156e-02, 1.307304e+00, -1.755524e+00, 8.799542e-12, 2.901226e-11, -4.937230e-11, -1.176005e-11, 4.164944e+01, 4.695901e-03
4.622000e+08, 9.115567e-02, 9.696121e-01, 2.274813e-03, 1.192574e-03, 3.115833e+00, -8.441426e-02, 1.308483e+00, -1.755243e+00, 8.694134e-12, 2.900714e-11, -4.943349e-11, -1.090008e-11, 4.164853e+01, 4.735100e-03
4.660000e+08, 9.116673e-02, 9.695969e-01, 2.298576e-03, 1.202605e-03, 3.115625e+00, -8.510684e-02, 1.309663e+00, -1.754983e+00, 8.591073e-12, 2.900219e-11, -4.948224e-11, -1.004927e-11, 4.164765e+01, 4.773837e-03
4.698000e+08, 9.117763e-02, 9.695817e-01, 2.322376e-03, 1.212618e-03, 3.115420e+00, -8.579930e-02, 1.310845e+00, -1.754743e+00, 8.490314e-12, 2.899739e-11, -4.951801e-11, -9.207716e-12, 4.164677e+01, 4.812122e-03
4.736000e+08, 9.118837e-02, 9.695668e-01, 2.346211e-03, 1.222611e-03, 3.115217e+00, -8.649164e-02, 1.312027e+00, -1.754523e+00, 8.391816e-12, 2.899275e-11, -4.954030e-11, -8.375502e-12, 4.164591e+01, 4.849965e-03
4.774000e+08, 9.119893e-02, 9.695520e-01, 2.370078e-03, 1.232585e-03, 3.115017e+00, -8.718388e-02, 1.313210e+00, -1.754323e+00, 8.295537e-12, 2.898825e-11, -4.954865e-11, -7.552717e-12, 4.164507e+01, 4.887375e-03
4.812000e+08, 9.120932e-02, 9.695374e-01, 2.393975e-03, 1.242540e-03, 3.114819e+00, -8.787600e-02, 1.314393e+00, -1.754143e+00, 8.201437e-12, 2.898391e-11, -4.954260e-11, -6.739443e-12, 4.164424e+01, 4.924361e-03
4.850000e+08, 9.121954e-02, 9.695230e-01, 2.417898e-03, 1.252475e-03, 3.114623e+00, -8.856803e-02, 1.315576e+00, -1.753982e+00, 8.109475e-12, 2.897971e-11, -4.952175e-11, -5.935754e-12, 4.164342e+01, 4.960933e-03
4.888000e+08, 9.122959e-02, 9.695088e-01, 2.441846e-03, 1.262392e-03, 3.114430e+00, -8.925995e-02, 1.316758e+00, -1.753840e+00, 8.019613e-12, 2.897565e-11, -4.948570e-11, -5.141722e-12, 4.164262e+01, 4.997100e-03
4.926000e+08, 9.123947e-02, 9.694947e-01, 2.465815e-03, 1.272289e-03, 3.114238e+00, -8.995177e-02, 1.317939e+00, -1.753717e+00, 7.931813e-12, 2.897173e-11, -4.943410e-11, -4.357412e-12, 4.164183e+01, 5.032870e-03
4.964000e+08, 9.124917e-02, 9.694808e-01, 2.489802e-03, 1.282167e-03, 3.114049e+00, -9.064351e-02, 1.319120e+00, -1.753613e+00, 7.846037e-12, 2.896795e-11, -4.936663e-11, -3.582885e-12, 4.164105e+01, 5.068252e-03
5.002000e+08, 9.125870e-02, 9.694671e-01, 2.513805e-03, 1.292026e-03, 3.113861e+00, -9.133515e-02, 1.320298e+00, -1.753528e+00, 7.762250e-12, 2.896431e-11, -4.928300e-11, -2.818197e-12, 4.164030e+01, 5.103254e-03
5.040000e+08, 9.126805e-02, 9.694536e-01, 2.537822e-03, 1.301865e-03, 3.113676e+00, -9.202670e-02, 1.321475e+00, -1.753460e+00, 7.680415e-12, 2.896080e-11, -4.918294e-11, -2.063400e-12, 4.163955e+01, 5.137886e-03
5.078000e+08, 9.127722e-02, 9.694402e-01, 2.561849e-03, 1.311686e-03, 3.113493e+00, -9.271817e-02, 1.322649e+00, -1.753411e+00, 7.600497e-12, 2.895742e-11, -4.906623e-11, -1.318541e-12, 4.163882e+01, 5.172155e-03
5.116000e+08, 9.128622e-02, 9.694271e-01, 2.585885e-03, 1.321487e-03, 3.113311e+00, -9.340956e-02, 1.323821e+00, -1.753379e+00, 7.522461e-12, 2.895417e-11, -4.893268e-11, -5.836607e-13, 4.163810e+01, 5.206069e-03
5.154000e+08, 9.129505e-02, 9.694141e-01, 2.609926e-03, 1.331268e-03, 3.113132e+00, -9.410088e-02, 1.324989e+00, -1.753366e+00, 7.446275e-12, 2.895105e-11, -4.878213e-11, 1.412029e-13, 4.163740e+01, 5.239636e-03
5.192000e+08, 9.130369e-02, 9.694013e-01, 2.633970e-03, 1.341031e-03, 3.112954e+00, -9.479212e-02, 1.326154e+00, -1.753369e+00, 7.371903e-12, 2.894805e-11, -4.861445e-11, 8.560172e-13, 4.163672e+01, 5.272865e-03
5.230000e+08, 9.131216e-02, 9.693886e-01, 2.658016e-03, 1.350775e-03, 3.112778e+00, -9.548328e-02, 1.327315e+00, -1.753389e+00, 7.299315e-12, 2.894517e-11, -4.842956e-11, 1.560754e-12, 4.163605e+01, 5.305762e-03
5.268000e+08, 9.132045e-02, 9.693762e-01, 2.682060e-03, 1.360499e-03, 3.112603e+00, -9.617438e-02, 1.328471e+00, -1.753427e+00, 7.228477e-12, 2.894241e-11, -4.822740e-11, 2.255391e-12, 4.163539e+01, 5.338336e-03
5.306000e+08, 9.132856e-02, 9.693639e-01, 2.706100e-03, 1.370204e-03, 3.112431e+00, -9.686541e-02, 1.329623e+00, -1.753480e+00, 7.159358e-12, 2.893977e-11, -4.800794e-11, 2.939908e-12, 4.163475e+01, 5.370593e-03
5.344000e+08, 9.133649e-02, 9.693518e-01, 2.730134e-03, 1.379891e-03, 3.112260e+00, -9.755638e-02, 1.330769e+00, -1.753551e+00, 7.091927e-12, 2.893725e-11, -4.777120e-11, 3.614290e-12, 4.163412e+01, 5.402542e-03
5.382000e+08, 9.134425e-02, 9.693399e-01, 2.754159e-03, 1.389559e-03, 3.112091e+00, -9.824729e-02, 1.331909e+00, -1.753637e+00, 7.026154e-12, 2.893484e-11, -4.751721e-11, 4.278529e-12, 4.163351e+01, 5.434188e-03
5.420000e+08, 9.135182e-02, 9.693282e-01, 2.778175e-03, 1.399207e-03, 3.111923e+00, -9.893814e-02, 1.333044e+00, -1.753739e+00, 6.962009e-12, 2.893254e-11, -4.724605e-11, 4.932619e-12, 4.163291e+01, 5.465540e-03
5.458000e+08, 9.135922e-02, 9.693167e-01, 2.802178e-03, 1.408837e-03, 3.111757e+00, -9.962894e-02, 1.334172e+00, -1.753857e+00, 6.899461e-12, 2.893035e-11, -4.695782e-11, 5.576558e-12, 4.163233e+01, 5.496604e-03
5.496000e+08, 9.136644e-02, 9.693053e-01, 2.826167e-03, 1.418449e-03, 3.111592e+00, -1.003197e-01, 1.335293e+00, -1.753990e+00, 6.838483e-12, 2.892827e-11, -4.665266e-11, 6.210349e-12, 4.163176e+01, 5.527386e-03
